 #Flux for atomic no:           94
 #Index Energy[MeV/n] dFlux[particles/MeV/n/sr/s/m^2]
   1   0.1000000E+00 0.66350357E-14
   2   0.1018610     0.67879971E-14
   3   0.1037567     0.69431748E-14
   4   0.1056876     0.71006031E-14
   5   0.1076545     0.72640639E-14
   6   0.1096579     0.74298791E-14
   7   0.1116987     0.75980846E-14
   8   0.1137774     0.77715629E-14
   9   0.1158948     0.79484869E-14
  10   0.1180517     0.81317721E-14
  11   0.1202486     0.83138308E-14
  12   0.1224865     0.85062157E-14
  13   0.1247660     0.86974597E-14
  14   0.1270879     0.88953232E-14
  15   0.1294530     0.90959980E-14
  16   0.1318621     0.93034431E-14
  17   0.1343161     0.95138215E-14
  18   0.1368158     0.97311236E-14
  19   0.1393619     0.99514852E-14
  20   0.1419555     0.10174947E-13
  21   0.1445973     0.10405555E-13
  22   0.1472883     0.10639394E-13
  23   0.1500293     0.10880542E-13
  24   0.1528214     0.11125059E-13
  25   0.1556654     0.11377048E-13
  26   0.1585624     0.11632545E-13
  27   0.1615133     0.11890577E-13
  28   0.1645191     0.12157338E-13
  29   0.1675808     0.12431920E-13
  30   0.1706995     0.12710295E-13
  31   0.1738762     0.12996668E-13
  32   0.1771121     0.13286981E-13
  33   0.1804082     0.13585474E-13
  34   0.1837656     0.13888063E-13
  35   0.1871855     0.14199013E-13
  36   0.1906691     0.14514223E-13
  37   0.1942175     0.14837996E-13
  38   0.1978319     0.15169376E-13
  39   0.2015136     0.15506334E-13
  40   0.2052638     0.15847880E-13
  41   0.2090838     0.16202687E-13
  42   0.2129748     0.16562289E-13
  43   0.2169384     0.16931091E-13
  44   0.2209756     0.17304861E-13
  45   0.2250880     0.17688052E-13
  46   0.2292769     0.18080777E-13
  47   0.2335438     0.18478773E-13
  48   0.2378901     0.18886529E-13
  49   0.2423173     0.19304172E-13
  50   0.2468268     0.19731831E-13
  51   0.2514203     0.20165186E-13
  52   0.2560993     0.20612144E-13
  53   0.2608654     0.21061666E-13
  54   0.2657201     0.21526172E-13
  55   0.2706652     0.22001342E-13
  56   0.2757023     0.22482792E-13
  57   0.2808332     0.22974009E-13
  58   0.2860595     0.23477414E-13
  59   0.2913831     0.23992024E-13
  60   0.2968058     0.24517979E-13
  61   0.3023295     0.25054281E-13
  62   0.3079559     0.25603372E-13
  63   0.3136870     0.26159635E-13
  64   0.3195247     0.26732477E-13
  65   0.3254712     0.27317427E-13
  66   0.3315282     0.27909969E-13
  67   0.3376980     0.28519603E-13
  68   0.3439826     0.29135948E-13
  69   0.3503842     0.29770924E-13
  70   0.3569049     0.30418830E-13
  71   0.3635470     0.31078642E-13
  72   0.3703127     0.31752917E-13
  73   0.3772043     0.32439441E-13
  74   0.3842241     0.33140771E-13
  75   0.3913746     0.33855924E-13
  76   0.3986581     0.34589878E-13
  77   0.4060772     0.35338032E-13
  78   0.4136344     0.36099365E-13
  79   0.4213322     0.36876487E-13
  80   0.4291732     0.37672041E-13
  81   0.4371602     0.38483804E-13
  82   0.4452958     0.39309542E-13
  83   0.4535829     0.40156822E-13
  84   0.4620241     0.41019732E-13
  85   0.4706225     0.41897258E-13
  86   0.4793809     0.42797024E-13
  87   0.4883022     0.43716810E-13
  88   0.4973896     0.44653151E-13
  89   0.5066461     0.45607490E-13
  90   0.5160748     0.46583844E-13
  91   0.5256791     0.47581208E-13
  92   0.5354621     0.48596073E-13
  93   0.5454271     0.49628680E-13
  94   0.5555776     0.50690677E-13
  95   0.5659170     0.51770969E-13
  96   0.5764488     0.52873609E-13
  97   0.5871767     0.54000166E-13
  98   0.5981041     0.55145806E-13
  99   0.6092349     0.56317222E-13
 100   0.6205729     0.57517298E-13
 101   0.6321219     0.58737337E-13
 102   0.6438857     0.59982780E-13
 103   0.6558685     0.61253960E-13
 104   0.6680744     0.62551194E-13
 105   0.6805074     0.63874809E-13
 106   0.6931717     0.65225142E-13
 107   0.7060717     0.66602519E-13
 108   0.7192118     0.68007279E-13
 109   0.7325965     0.69445047E-13
 110   0.7462303     0.70909634E-13
 111   0.7601178     0.72405332E-13
 112   0.7742637     0.73927220E-13
 113   0.7886729     0.75484967E-13
 114   0.8033502     0.77072327E-13
 115   0.8183007     0.78693684E-13
 116   0.8335294     0.80346787E-13
 117   0.8490415     0.82034721E-13
 118   0.8648423     0.83760601E-13
 119   0.8809372     0.85516792E-13
 120   0.8973315     0.87305061E-13
 121   0.9140310     0.89137993E-13
 122   0.9310412     0.91001181E-13
 123   0.9483683     0.92905948E-13
 124   0.9660175     0.94848635E-13
 125   0.9839953     0.96831160E-13
 126    1.002308     0.98853942E-13
 127    1.020961     0.10091756E-12
 128    1.039961     0.10302106E-12
 129    1.059315     0.10517333E-12
 130    1.079029     0.10736103E-12
 131    1.099110     0.10959856E-12
 132    1.119564     0.11188508E-12
 133    1.140399     0.11420868E-12
 134    1.161623     0.11658797E-12
 135    1.183241     0.11900687E-12
 136    1.205261     0.12148271E-12
 137    1.227691     0.12400491E-12
 138    1.250538     0.12657968E-12
 139    1.273811     0.12920065E-12
 140    1.297517     0.13188115E-12
 141    1.321664     0.13461759E-12
 142    1.346261     0.13740217E-12
 143    1.371315     0.14024835E-12
 144    1.396835     0.14315114E-12
 145    1.422831     0.14611126E-12
 146    1.449310     0.14913373E-12
 147    1.476282     0.15221639E-12
 148    1.503755     0.15535719E-12
 149    1.531741     0.15856403E-12
 150    1.560246     0.16183775E-12
 151    1.589283     0.16517771E-12
 152    1.618860     0.16858190E-12
 153    1.648987     0.17205978E-12
 154    1.679675     0.17560206E-12
 155    1.710934     0.17922126E-12
 156    1.742775     0.18291244E-12
 157    1.775208     0.18667510E-12
 158    1.808245     0.19051895E-12
 159    1.841897     0.19443471E-12
 160    1.876174     0.19843354E-12
 161    1.911090     0.20251353E-12
 162    1.946656     0.20667271E-12
 163    1.982884     0.21091375E-12
 164    2.019785     0.21524793E-12
 165    2.057374     0.21966755E-12
 166    2.095662     0.22417504E-12
 167    2.134663     0.22877013E-12
 168    2.174390     0.23346299E-12
 169    2.214855     0.23825020E-12
 170    2.256074     0.24313144E-12
 171    2.298060     0.24810964E-12
 172    2.340827     0.25319636E-12
 173    2.384391     0.25837793E-12
 174    2.428764     0.26366927E-12
 175    2.473964     0.26906404E-12
 176    2.520005     0.27456978E-12
 177    2.566903     0.28019096E-12
 178    2.614673     0.28591818E-12
 179    2.663333     0.29176374E-12
 180    2.712898     0.29773054E-12
 181    2.763385     0.30381868E-12
 182    2.814812     0.31002504E-12
 183    2.867196     0.31635895E-12
 184    2.920555     0.32282347E-12
 185    2.974907     0.32942033E-12
 186    3.030271     0.33614975E-12
 187    3.086665     0.34301332E-12
 188    3.144108     0.35001301E-12
 189    3.202620     0.35716444E-12
 190    3.262222     0.36445554E-12
 191    3.322932     0.37189449E-12
 192    3.384772     0.37948312E-12
 193    3.447764     0.38722351E-12
 194    3.511928     0.39513014E-12
 195    3.577285     0.40318625E-12
 196    3.643859     0.41141455E-12
 197    3.711672     0.41980763E-12
 198    3.780747     0.42837557E-12
 199    3.851107     0.43711446E-12
 200    3.922777     0.44602646E-12
 201    3.995780     0.45512671E-12
 202    4.070142     0.46441122E-12
 203    4.145888     0.47388742E-12
 204    4.223044     0.48355124E-12
 205    4.301636     0.49341510E-12
 206    4.381690     0.50347828E-12
 207    4.463233     0.51374990E-12
 208    4.546295     0.52423625E-12
 209    4.630902     0.53492844E-12
 210    4.717084     0.54583790E-12
 211    4.804870     0.55697547E-12
 212    4.894289     0.56834425E-12
 213    4.985373     0.57994430E-12
 214    5.078151     0.59178167E-12
 215    5.172657     0.60385659E-12
 216    5.268920     0.61618701E-12
 217    5.366976     0.62876343E-12
 218    5.466856     0.64160222E-12
 219    5.568597     0.65470556E-12
 220    5.672229     0.66808007E-12
 221    5.777791     0.68172649E-12
 222    5.885316     0.69565545E-12
 223    5.994843     0.70986375E-12
 224    6.106408     0.72437737E-12
 225    6.220049     0.73918356E-12
 226    6.335805     0.75429674E-12
 227    6.453715     0.76971762E-12
 228    6.573820     0.78546089E-12
 229    6.696160     0.80153419E-12
 230    6.820776     0.81793052E-12
 231    6.947712     0.83467283E-12
 232    7.077010     0.85175964E-12
 233    7.208714     0.86920233E-12
 234    7.342870     0.88700781E-12
 235    7.479522     0.90517773E-12
 236    7.618717     0.92372605E-12
 237    7.760502     0.94266337E-12
 238    7.904927     0.96198982E-12
 239    8.052038     0.98171612E-12
 240    8.201888     0.10018622E-11
 241    8.354527     0.10224200E-11
 242    8.510006     0.10434080E-11
 243    8.668378     0.10648334E-11
 244    8.829699     0.10867013E-11
 245    8.994022     0.11090318E-11
 246    9.161403     0.11318249E-11
 247    9.331898     0.11550942E-11
 248    9.505567     0.11788517E-11
 249    9.682467     0.12031048E-11
 250    9.862659     0.12278657E-11
 251    10.04620     0.12531439E-11
 252    10.23317     0.12789463E-11
 253    10.42361     0.13052924E-11
 254    10.61759     0.13321927E-11
 255    10.81519     0.13596520E-11
 256    11.01646     0.13876907E-11
 257    11.22148     0.14163140E-11
 258    11.43031     0.14455414E-11
 259    11.64303     0.14753721E-11
 260    11.85971     0.15058403E-11
 261    12.08042     0.15369374E-11
 262    12.30524     0.15686923E-11
 263    12.53424     0.16011183E-11
 264    12.76751     0.16342133E-11
 265    13.00511     0.16680084E-11
 266    13.24714     0.17025161E-11
 267    13.49367     0.17377412E-11
 268    13.74479     0.17737080E-11
 269    14.00058     0.18104328E-11
 270    14.26113     0.18479183E-11
 271    14.52654     0.18861984E-11
 272    14.79688     0.19252781E-11
 273    15.07225     0.19651743E-11
 274    15.35275     0.20059030E-11
 275    15.63846     0.20474902E-11
 276    15.92950     0.20899406E-11
 277    16.22595     0.21332803E-11
 278    16.52792     0.21775277E-11
 279    16.83550     0.22226901E-11
 280    17.14881     0.22687993E-11
 281    17.46796     0.23158723E-11
 282    17.79304     0.23639190E-11
 283    18.12418     0.24129663E-11
 284    18.46147     0.24630283E-11
 285    18.80504     0.25141248E-11
 286    19.15501     0.25662849E-11
 287    19.51149     0.26195185E-11
 288    19.87460     0.26738449E-11
 289    20.24447     0.27292962E-11
 290    20.62122     0.27858848E-11
 291    21.00498     0.28436344E-11
 292    21.39589     0.29025614E-11
 293    21.79407     0.29626913E-11
 294    22.19966     0.30240428E-11
 295    22.61280     0.30866440E-11
 296    23.03363     0.31505042E-11
 297    23.46229     0.32156630E-11
 298    23.89893     0.32821244E-11
 299    24.34369     0.33499206E-11
 300    24.79673     0.34190704E-11
 301    25.25820     0.34895975E-11
 302    25.72826     0.35615319E-11
 303    26.20707     0.36348789E-11
 304    26.69478     0.37096741E-11
 305    27.19158     0.37859264E-11
 306    27.69762     0.38636646E-11
 307    28.21308     0.39429202E-11
 308    28.73812     0.40237024E-11
 309    29.27295     0.41060324E-11
 310    29.81772     0.41899353E-11
 311    30.37263     0.42754307E-11
 312    30.93787     0.43625442E-11
 313    31.51363     0.44512913E-11
 314    32.10011     0.45416865E-11
 315    32.69749     0.46337608E-11
 316    33.30600     0.47275248E-11
 317    33.92583     0.48229992E-11
 318    34.55719     0.49201927E-11
 319    35.20031     0.50191401E-11
 320    35.85539     0.51198499E-11
 321    36.52267     0.52223299E-11
 322    37.20236     0.53266055E-11
 323    37.89470     0.54326843E-11
 324    38.59993     0.55405893E-11
 325    39.31828     0.56503149E-11
 326    40.05000     0.57618871E-11
 327    40.79533     0.58753163E-11
 328    41.55454     0.59906021E-11
 329    42.32788     0.61077606E-11
 330    43.11560     0.62267838E-11
 331    43.91800     0.63476980E-11
 332    44.73531     0.64704956E-11
 333    45.56785     0.65951758E-11
 334    46.41590     0.67217477E-11
 335    47.27971     0.68501979E-11
 336    48.15959     0.69805325E-11
 337    49.05584     0.71127509E-11
 338    49.96878     0.72468438E-11
 339    50.89871     0.73828001E-11
 340    51.84594     0.75206083E-11
 341    52.81080     0.76602544E-11
 342    53.79362     0.78017376E-11
 343    54.79473     0.79450318E-11
 344    55.81447     0.80901163E-11
 345    56.85318     0.82369788E-11
 346    57.91123     0.83855943E-11
 347    58.98897     0.85359332E-11
 348    60.08676     0.86879687E-11
 349    61.20498     0.88416670E-11
 350    62.34402     0.89970097E-11
 351    63.50425     0.91539484E-11
 352    64.68607     0.93124440E-11
 353    65.88989     0.94724662E-11
 354    67.11612     0.96339664E-11
 355    68.36516     0.97968933E-11
 356    69.63744     0.99612046E-11
 357    70.93341     0.10126847E-10
 358    72.25349     0.10293764E-10
 359    73.59814     0.10461903E-10
 360    74.96781     0.10631199E-10
 361    76.36298     0.10801591E-10
 362    77.78410     0.10973024E-10
 363    79.23167     0.11145404E-10
 364    80.70619     0.11318683E-10
 365    82.20815     0.11492775E-10
 366    83.73805     0.11667607E-10
 367    85.29643     0.11843091E-10
 368    86.88381     0.12019157E-10
 369    88.50073     0.12195717E-10
 370    90.14774     0.12372672E-10
 371    91.82541     0.12549941E-10
 372    93.53429     0.12727432E-10
 373    95.27498     0.12905040E-10
 374    97.04807     0.13082674E-10
 375    98.85414     0.13260227E-10
 376    100.6938     0.13437611E-10
 377    102.5678     0.13614701E-10
 378    104.4766     0.13791400E-10
 379    106.4209     0.13967604E-10
 380    108.4014     0.14143188E-10
 381    110.4188     0.14318049E-10
 382    112.4737     0.14492072E-10
 383    114.5668     0.14665135E-10
 384    116.6989     0.14837123E-10
 385    118.8708     0.15007917E-10
 386    121.0830     0.15177398E-10
 387    123.3364     0.15345445E-10
 388    125.6317     0.15511937E-10
 389    127.9697     0.15676741E-10
 390    130.3512     0.15839748E-10
 391    132.7771     0.16000824E-10
 392    135.2481     0.16159850E-10
 393    137.7651     0.16316705E-10
 394    140.3289     0.16471251E-10
 395    142.9405     0.16623385E-10
 396    145.6006     0.16772968E-10
 397    148.3103     0.16919882E-10
 398    151.0703     0.17064003E-10
 399    153.8818     0.17205206E-10
 400    156.7455     0.17343394E-10
 401    159.6626     0.17478416E-10
 402    162.6339     0.17610179E-10
 403    165.6606     0.17738555E-10
 404    168.7436     0.17863443E-10
 405    171.8839     0.17984716E-10
 406    175.0827     0.18102268E-10
 407    178.3410     0.18216003E-10
 408    181.6600     0.18325811E-10
 409    185.0407     0.18431588E-10
 410    188.4843     0.18533231E-10
 411    191.9921     0.18630651E-10
 412    195.5650     0.18723753E-10
 413    199.2045     0.18812455E-10
 414    202.9118     0.18896652E-10
 415    206.6880     0.18976277E-10
 416    210.5345     0.19051245E-10
 417    214.4526     0.19121487E-10
 418    218.4436     0.19186932E-10
 419    222.5088     0.19247505E-10
 420    226.6498     0.19303153E-10
 421    230.8678     0.19353812E-10
 422    235.1642     0.19399430E-10
 423    239.5407     0.19439960E-10
 424    243.9986     0.19475350E-10
 425    248.5394     0.19505576E-10
 426    253.1648     0.19530587E-10
 427    257.8762     0.19550370E-10
 428    262.6753     0.19564872E-10
 429    267.5638     0.19574096E-10
 430    272.5432     0.19578025E-10
 431    277.6152     0.19576627E-10
 432    282.7817     0.19569926E-10
 433    288.0443     0.19557881E-10
 434    293.4049     0.19540548E-10
 435    298.8652     0.19517886E-10
 436    304.4271     0.19489932E-10
 437    310.0927     0.19456688E-10
 438    315.8636     0.19418201E-10
 439    321.7419     0.19374479E-10
 440    327.7295     0.19325571E-10
 441    333.8286     0.19271508E-10
 442    340.0412     0.19212316E-10
 443    346.3694     0.19148079E-10
 444    352.8154     0.19078806E-10
 445    359.3814     0.19004591E-10
 446    366.0695     0.18925479E-10
 447    372.8821     0.18841527E-10
 448    379.8215     0.18752822E-10
 449    386.8901     0.18659404E-10
 450    394.0902     0.18561385E-10
 451    401.4243     0.18458832E-10
 452    408.8948     0.18351824E-10
 453    416.5044     0.18240458E-10
 454    424.2556     0.18124814E-10
 455    432.1511     0.18004979E-10
 456    440.1935     0.17881049E-10
 457    448.3856     0.17753120E-10
 458    456.7301     0.17621285E-10
 459    465.2299     0.17485673E-10
 460    473.8879     0.17346359E-10
 461    482.7070     0.17203480E-10
 462    491.6903     0.17057132E-10
 463    500.8407     0.16907449E-10
 464    510.1615     0.16754525E-10
 465    519.6556     0.16598497E-10
 466    529.3265     0.16439456E-10
 467    539.1774     0.16277537E-10
 468    549.2115     0.16112870E-10
 469    559.4324     0.15945556E-10
 470    569.8436     0.15775714E-10
 471    580.4485     0.15603473E-10
 472    591.2507     0.15428965E-10
 473    602.2540     0.15252324E-10
 474    613.4620     0.15073665E-10
 475    624.8787     0.14893120E-10
 476    636.5078     0.14710821E-10
 477    648.3533     0.14526882E-10
 478    660.4192     0.14341463E-10
 479    672.7097     0.14154643E-10
 480    685.2289     0.13966595E-10
 481    697.9811     0.13777406E-10
 482    710.9707     0.13587237E-10
 483    724.2020     0.13396155E-10
 484    737.6795     0.13204333E-10
 485    751.4078     0.13011833E-10
 486    765.3917     0.12818780E-10
 487    779.6357     0.12625280E-10
 488    794.1453     0.12431450E-10
 489    808.9244     0.12237419E-10
 490    823.9786     0.12043302E-10
 491    839.3130     0.11849195E-10
 492    854.9328     0.11655236E-10
 493    870.8432     0.11461502E-10
 494    887.0497     0.11268100E-10
 495    903.5579     0.11075128E-10
 496    920.3732     0.10882672E-10
 497    937.5015     0.10690839E-10
 498    954.9486     0.10499722E-10
 499    972.7203     0.10309401E-10
 500    990.8228     0.10119985E-10
 501    1009.262     0.99315547E-11
 502    1028.045     0.97442167E-11
 503    1047.177     0.95580453E-11
 504    1066.665     0.93731299E-11
 505    1086.516     0.91895415E-11
 506    1106.736     0.90073149E-11
 507    1127.333     0.88265116E-11
 508    1148.312     0.86471802E-11
 509    1169.683     0.84693450E-11
 510    1191.451     0.82930806E-11
 511    1213.624     0.81184417E-11
 512    1236.209     0.79455045E-11
 513    1259.215     0.77743289E-11
 514    1282.650     0.76049705E-11
 515    1306.520     0.74374907E-11
 516    1330.834     0.72719508E-11
 517    1355.602     0.71084111E-11
 518    1380.829     0.69469018E-11
 519    1406.527     0.67874734E-11
 520    1432.703     0.66301613E-11
 521    1459.365     0.64749998E-11
 522    1486.525     0.63220241E-11
 523    1514.189     0.61712345E-11
 524    1542.368     0.60226260E-11
 525    1571.072     0.58762001E-11
 526    1600.310     0.57319353E-11
 527    1630.092     0.55898662E-11
 528    1660.428     0.54500003E-11
 529    1691.329     0.53123786E-11
 530    1722.805     0.51770125E-11
 531    1754.867     0.50439501E-11
 532    1787.525     0.49132256E-11
 533    1820.791     0.47848748E-11
 534    1854.676     0.46589126E-11
 535    1889.192     0.45353192E-11
 536    1924.350     0.44140234E-11
 537    1960.163     0.42949880E-11
 538    1996.642     0.41781908E-11
 539    2033.799     0.40636617E-11
 540    2071.649     0.39514260E-11
 541    2110.202     0.38414953E-11
 542    2149.474     0.37338427E-11
 543    2189.476     0.36284361E-11
 544    2230.222     0.35252335E-11
 545    2271.727     0.34241865E-11
 546    2314.004     0.33252945E-11
 547    2357.068     0.32285698E-11
 548    2400.934     0.31339874E-11
 549    2445.615     0.30415128E-11
 550    2491.129     0.29510875E-11
 551    2537.489     0.28627014E-11
 552    2584.712     0.27763787E-11
 553    2632.814     0.26921527E-11
